row_id,energy
94993,2026.531332
94994,1951.066184
94995,1895.963079
94996,1867.893394
94997,1872.011663
94998,1911.81321
94999,1983.884873
95000,2073.776961
95001,2159.708408
95002,2223.517387
95003,2260.454908
95004,2279.333359
95005,2292.88845
95006,2307.122436
95007,2319.095675
95008,2324.241257
95009,2324.891256
95010,2330.542985
95011,2348.699786
95012,2374.832968
95013,2391.607145
95014,2379.316039
95015,2329.286862
95016,2249.467076
95017,2158.653835
95018,2075.640839
95019,2012.637504
95020,1976.385197
95021,1972.108984
95022,2003.374595
95023,2066.83848
95024,2148.119115
95025,2225.501541
95026,2280.887379
95027,2309.587887
95028,2320.471987
95029,2326.327749
95030,2333.205216
95031,2338.207602
95032,2336.805639
95033,2331.363601
95034,2331.405389
95035,2344.455235
95036,2365.999591
95037,2378.712502
95038,2362.891501
95039,2309.86214
95040,2227.564958
95041,2134.785182
95042,2050.299896
95043,1986.297562
95044,1949.49465
95045,1945.087816
95046,1976.611319
95047,2040.687561
95048,2122.898881
95049,2201.492597
95050,2258.331533
95051,2288.687567
95052,2301.390155
95053,2309.188292
95054,2318.093785
95055,2325.172884
95056,2325.861024
95057,2322.4892
95058,2324.550381
95059,2339.54048
95060,2362.920483
95061,2377.341994
95062,2363.083268
95063,2311.453822
95064,2230.381437
95065,2138.641844
95066,2055.005825
95067,1991.65863
95068,1955.316447
95069,1951.178396
95070,1982.783714
95071,2046.762033
95072,2128.704891
95073,2206.870459
95074,2263.133745
95075,2292.779804
95076,2304.651915
95077,2311.513197
95078,2319.389542
95079,2325.360915
95080,2324.875778
95081,2320.277178
95082,2321.068882
95083,2334.756115
95084,2356.807472
95085,2369.880302
95086,2354.2566
95087,2301.247536
95088,2218.780399
95089,2125.628287
95090,2040.557243
95091,1975.745756
95092,1937.901359
95093,1932.212789
95094,1962.207373
95095,2024.501552
95096,2104.672664
95097,2180.963974
95098,2235.235199
95099,2262.756067
95100,2272.354855
95101,2276.780365
95102,2282.045238
95103,2285.217614
95104,2281.735924
95105,2273.935318
95106,2271.314131
95107,2281.374924
95108,2299.586668
95109,2308.610364
95110,2288.735139
95111,2231.282926
95112,2144.195526
95113,2046.264353
95114,1956.277583
95115,1886.439615
95116,1843.48757
95117,1832.643305
95118,1857.470597
95119,1914.625415
95120,1989.727394
95121,2061.064523
95122,2110.543273
95123,2133.48172
95124,2138.757616
95125,2139.169869
95126,2140.781329
95127,2140.709908
95128,2134.442812
95129,2124.362413
95130,2120.012152
95131,2128.937023
95132,2146.645218
95133,2155.833231
95134,2136.821458
95135,2080.958414
95136,1996.207385
95137,1901.375787
95138,1815.262
95139,1750.074551
95140,1712.548407
95141,1707.896837
95142,1739.668511
95143,1804.497754
95144,1887.976074
95145,1968.356961
95146,2027.506206
95147,2060.695275
95148,2076.7497
95149,2088.410934
95150,2101.679577
95151,2113.606992
95152,2119.610078
95153,2121.997726
95154,2130.237352
95155,2151.796033
95156,2182.102842
95157,2203.774644
95158,2197.052415
95159,2153.20617
95160,2080.122323
95161,1996.53375
95162,1921.167296
95163,1866.163613
95164,1838.19407
95165,1842.413191
95166,1882.316289
95167,1954.490194
95168,2044.485204
95169,2130.520244
95170,2194.433477
95171,2231.475902
95172,2250.459899
95173,2264.121166
95174,2278.46195
95175,2290.542597
95176,2295.79619
95177,2296.554791
95178,2302.315701
95179,2320.582256
95180,2346.825753
95181,2363.710796
95182,2351.531097
95183,2301.613857
95184,2221.906529
95185,2131.206256
95186,2048.306728
95187,1985.417353
95188,1949.279483
95189,1945.118179
95190,1976.499157
95191,2040.078859
95192,2121.47575
95193,2198.974859
95194,2254.477799
95195,2283.295817
95196,2294.297825
95197,2300.271883
95198,2307.268021
95199,2312.389445
95200,2311.106878
95201,2305.78458
95202,2305.946444
95203,2319.116691
95204,2340.781762
95205,2353.615693
95206,2337.916006
95207,2285.008242
95208,2202.83293
95209,2110.175287
95210,2025.812386
95211,1961.932679
95212,1925.252624
95213,1920.968868
95214,1952.615661
95215,2016.815391
95216,2099.15039
95217,2177.867964
95218,2234.830925
95219,2265.311143
95220,2278.138063
95221,2286.060668
95222,2295.090757
95223,2302.294569
95224,2303.107527
95225,2299.860617
95226,2302.046796
95227,2317.161969
95228,2340.66711
95229,2355.213813
95230,2341.080322
95231,2289.576144
95232,2208.62905
95233,2117.014761
95234,2033.504047
95235,1970.282149
95236,1934.065244
95237,1930.052442
95238,1961.78297
95239,2025.886449
95240,2107.954407
95241,2186.245005
95242,2242.63324
95243,2272.404157
95244,2284.401026
95245,2291.386955
95246,2299.387824
95247,2305.48359
95248,2305.122705
95249,2300.648204
95250,2301.563845
95251,2315.374843
95252,2337.549782
95253,2350.746002
95254,2335.245488
95255,2282.359398
95256,2200.015014
95257,2106.985422
95258,2022.036655
95259,1957.347193
95260,1919.624558
95261,1914.057478
95262,1944.17327
95263,2006.588364
95264,2086.88009
95265,2163.291701
95266,2217.682906
95267,2245.323423
95268,2255.041518
95269,2259.585986
95270,2264.969455
95271,2268.260058
95272,2264.896215
95273,2257.213065
95274,2254.708938
95275,2264.886381
95276,2283.214357
95277,2292.353857
95278,2272.594001
95279,2215.256709
95280,2128.283776
95281,2030.466604
95282,1940.593362
95283,1870.868437
95284,1828.028944
95285,1817.296728
95286,1842.235559
95287,1899.501394
95288,1974.713862
95289,2046.160942
95290,2095.749094
95291,2118.796388
95292,2124.180565
95293,2124.700527
95294,2126.419111
95295,2126.454222
95296,2120.293058
95297,2110.317982
95298,2106.072426
95299,2115.101374
95300,2132.913012
95301,2142.203824
95302,2123.294197
95303,2067.532639
95304,1982.882426
95305,1888.150967
95306,1802.136632
95307,1737.047941
95308,1699.619853
95309,1695.065627
95310,1726.933926
95311,1791.859068
95312,1875.432551
95313,1955.907859
95314,2015.150772
95315,2048.432751
95316,2064.579319
95317,2076.33192
95318,2089.691149
95319,2101.708359
95320,2107.800442
95321,2110.276281
95322,2118.603285
95323,2140.248523
95324,2170.64106
95325,2192.397756
95326,2185.759577
95327,2141.996532
95328,2068.995027
95329,1985.487931
95330,1910.202083
95331,1855.278126
95332,1827.387423
95333,1831.684491
95334,1871.664635
95335,1943.91468
95336,2033.984916
95337,2120.094261
95338,2184.080872
95339,2221.195741
95340,2240.251242
95341,2253.983065
95342,2268.393451
95343,2280.542742
95344,2285.864011
95345,2286.689315
95346,2292.51595
95347,2310.847244
95348,2337.15449
95349,2354.102284
95350,2341.984332
95351,2292.12783
95352,2212.480225
95353,2121.838654
95354,2038.996802
95355,1976.164069
95356,1940.081804
95357,1935.97506
95358,1967.40955
95359,2031.041708
95360,2112.489996
95361,2190.039436
95362,2245.591637
95363,2274.45784
95364,2285.506951
95365,2291.527026
95366,2298.568091
95367,2303.733346
95368,2302.493507
95369,2297.212833
95370,2297.415211
95371,2310.624855
95372,2332.328204
95373,2345.199289
95374,2329.535626
95375,2276.662754
95376,2194.521195
95377,2101.896164
95378,2017.564728
95379,1953.715337
95380,1917.064443
95381,1912.80869
95382,1944.482322
95383,2008.707727
95384,2091.067229
95385,2169.808133
95386,2226.793247
95387,2257.294436
95388,2270.141143
95389,2278.082347
95390,2287.129843
95391,2294.349867
95392,2295.177839
95393,2291.944741
95394,2294.143529
95395,2309.270103
95396,2332.785434
95397,2347.341114
95398,2333.215383
95399,2281.717747
95400,2200.775973
95401,2109.165779
95402,2025.657934
95403,1962.437675
95404,1926.221177
95405,1922.207548
95406,1953.936013
95407,2018.03619
95408,2100.099604
95409,2178.384415
95410,2234.76562
95411,2264.528259
95412,2276.515601
95413,2283.490752
95414,2291.479593
95415,2297.562075
95416,2297.186651
95417,2292.696354
95418,2293.594941
95419,2307.387625
95420,2329.542989
95421,2342.718372
95422,2327.195758
95423,2274.286302
95424,2191.917288
95425,2098.861798
95426,2013.885867
95427,1949.167972
95428,1911.415637
95429,1905.817586
95430,1935.901137
95431,1998.282721
95432,2078.539664
95433,2154.915222
95434,2209.269102
95435,2236.871023
95436,2246.54925
95437,2251.052577
95438,2256.393633
95439,2259.640552
95440,2256.231753
95441,2248.502376
95442,2245.950749
95443,2256.079422
95444,2274.357358
95445,2283.445548
95446,2263.633112
95447,2206.241972
95448,2119.213923
95449,2021.340367
95450,1931.409474
95451,1861.625634
95452,1818.72596
95453,1807.932301
95454,1832.808425
95455,1890.010294
95456,1965.157535
95457,2036.538129
95458,2086.058539
95459,2109.036835
95460,2114.350761
95461,2114.799217
95462,2116.445047
95463,2116.406154
95464,2110.169739
95465,2100.118166
95466,2095.794871
95467,2104.744839
95468,2122.476257
95469,2131.685612
95470,2112.693294
95471,2056.847812
95472,1972.112446
95473,1877.294605
95474,1791.192664
95475,1726.015145
95476,1688.497009
95477,1683.851517
95478,1715.627338
95479,1780.458788
95480,1863.937372
95481,1944.316575
95482,2003.462181
95483,2036.645654
95484,2052.692518
95485,2064.344225
95486,2077.601368
95487,2089.515306
95488,2095.502936
95489,2097.873141
95490,2106.093336
95491,2127.630594
95492,2157.913982
95493,2179.560364
95494,2172.81071
95495,2128.935034
95496,2055.819745
95497,1972.197716
95498,1896.79579
95499,1841.754615
95500,1813.745557
95501,1817.923138
95502,1857.782668
95503,1929.910974
95504,2019.858353
95505,2105.843727
95506,2169.705256
95507,2206.693939
95508,2225.622152
95509,2239.225593
95510,2253.506505
95511,2265.525236
95512,2270.714863
95513,2271.40745
95514,2277.100297
95515,2295.296737
95516,2321.468067
95517,2338.27889
95518,2326.022917
95519,2276.027349
95520,2196.239638
95521,2105.456927
95522,2022.472906
95523,1959.496981
95524,1923.270507
95525,1919.018542
95526,1950.306804
95527,2013.791735
95528,2095.091801
95529,2172.492031
95530,2227.894038
95531,2256.609071
95532,2267.506042
95533,2273.373011
95534,2280.260013
95535,2285.270251
95536,2283.874451
95537,2278.436876
95538,2278.481419
95539,2291.532302
95540,2313.075969
95541,2325.786458
95542,2309.961292
95543,2256.926015
95544,2174.621159
95545,2081.831942
95546,1997.33544
95547,1933.320109
95548,1896.502407
95549,1892.078987
95550,1923.584098
95551,1987.640136
95552,2069.829432
95553,2148.399297
95554,2205.212548
95555,2235.541055
95556,2248.214269
95557,2255.981178
95558,2264.853582
95559,2271.897724
95560,2272.549034
95561,2269.138499
95562,2271.159084
95563,2286.106695
95564,2309.442311
95565,2323.817532
95566,2309.510606
95567,2257.831046
95568,2176.706627
95569,2084.913074
95570,2001.221164
95571,1937.816142
95572,1901.414192
95573,1897.214428
95574,1928.756083
95575,1992.668784
95576,2074.544064
95577,2152.640091
95578,2208.831869
95579,2238.404447
95580,2250.201102
95581,2256.984947
95582,2264.781872
95583,2270.671838
95584,2270.103303
95585,2265.41931
95586,2266.123625
95587,2279.721468
95588,2301.681431
95589,2314.660861
95590,2298.94175
95591,2245.835263
95592,2163.268691
95593,2070.015126
95594,1984.840609
95595,1919.923629
95596,1881.971715
95597,1876.173602
95598,1906.056616
95599,1968.237196
95600,2048.292679
95601,2124.466326
95602,2178.617856
95603,2206.016995
95604,2215.492017
95605,2219.791725
95606,2224.928757
95607,2227.971255
95608,2224.357649
95609,2216.423085
95610,2213.665902
95611,2223.588659
95612,2241.660325
95613,2250.541904
95614,2230.522521
95615,2172.924111
95616,2085.688475
95617,1987.607025
95618,1897.467941
95619,1827.47562
95620,1784.367186
95621,1773.364495
95622,1798.031326
95623,1855.023649
95624,1929.961102
95625,2001.131672
95626,2050.441834
95627,2073.209665
95628,2078.312919
95629,2078.550507
95630,2079.985278
95631,2079.735148
95632,2073.287326
95633,2063.024184
95634,2058.489169
95635,2067.227274
95636,2084.746696
95637,2093.743931
95638,2074.539378
95639,2018.481555
95640,1933.533752
95641,1838.503387
95642,1752.188844
95643,1686.798654
95644,1649.067788
95645,1644.209516
95646,1675.772516
95647,1740.391114
95648,1823.656823
95649,1903.823138
95650,1962.755852
95651,1995.726439
95652,2011.560432
95653,2022.999291
95654,2036.04362
95655,2047.744787
95656,2053.519696
95657,2055.677243
95658,2063.68485
95659,2085.009598
95660,2115.080566
95661,2136.514626
95662,2129.552757
95663,2085.464982
95664,2012.137721
95665,1928.303854
95666,1852.690234
95667,1797.437518
95668,1769.217082
95669,1773.183456
95670,1812.83196
95671,1884.749431
95672,1974.486173
95673,2060.261118
95674,2123.912436
95675,2160.691133
95676,2179.409597
95677,2192.803532
95678,2206.875194
95679,2218.684935
95680,2223.665846
95681,2224.149997
95682,2229.634697
95683,2247.623289
95684,2273.587079
95685,2290.190679
95686,2277.727808
95687,2227.525677
95688,2147.531746
95689,2056.543168
95690,1973.35364
95691,1910.172579
95692,1873.741348
95693,1869.285013
95694,1900.369302
95695,1963.650665
95696,2044.747576
95697,2121.945074
95698,2177.144782
95699,2205.657955
95700,2216.353514
95701,2222.01953
95702,2228.706043
95703,2233.516268
95704,2231.920937
95705,2226.284322
95706,2226.130326
95707,2238.983179
95708,2260.329332
95709,2272.842833
95710,2256.821213
95711,2203.590024
95712,2121.089806
95713,2028.105786
95714,1943.415048
95715,1879.206056
95716,1842.195278
95717,1837.579372
95718,1868.892598
95719,1932.757357
95720,2014.755992
95721,2093.13582
95722,2149.759665
95723,2179.899407
95724,2192.384504
95725,2199.963951
95726,2208.649558
95727,2215.507575
95728,2215.973439
95729,2212.378145
95730,2214.214666
95731,2228.978916
95732,2252.131882
95733,2266.325171
95734,2251.837038
95735,2199.977004
95736,2118.672853
95737,2026.700315
95738,1942.830177
95739,1879.247689
95740,1842.669044
95741,1838.293363
95742,1869.659886
95743,1933.398247
95744,2015.099986
95745,2093.023279
95746,2149.043137
95747,2178.444616
95748,2190.070999
95749,2196.685408
95750,2204.313738
95751,2210.035958
95752,2209.300533
95753,2204.450513
95754,2204.989669
95755,2218.423229
95756,2240.219792
95757,2253.03671
95758,2237.155985
95759,2183.888786
95760,2101.162409
95761,2007.749955
95762,1922.417472
95763,1857.343453
95764,1819.235435
95765,1813.282158
95766,1843.010955
95767,1905.038272
95768,1984.941449
95769,2060.963758
95770,2114.964919
95771,2142.214667
95772,2151.54128
95773,2155.693569
95774,2160.684178
95775,2163.581252
95776,2159.823228
95777,2151.745259
95778,2148.845689
95779,2158.62708
95780,2176.55841
95781,2185.300687
95782,2165.143042
95783,2107.407414
95784,2020.03561
95785,1921.819048
95786,1831.545912
95787,1761.420605
95788,1718.180256
95789,1707.046726
95790,1731.583799
95791,1788.447449
95792,1863.257319
95793,1934.301403
95794,1983.486178
95795,2006.129727
95796,2011.109809
95797,2011.225338
95798,2012.53917
95799,2012.169223
95800,2005.602712
95801,1995.222013
95802,1990.570577
95803,1999.193401
95804,2016.598687
95805,2025.482935
95806,2006.166547
95807,1949.998047
95808,1864.940727
95809,1769.802011
95810,1683.380284
95811,1617.884083
95812,1580.048381
95813,1575.086455
95814,1606.546982
95815,1671.064295
95816,1754.22991
95817,1834.297324
95818,1893.132335
95819,1926.006418
95820,1941.745112
95821,1953.089879
95822,1966.041326
95823,1977.650824
95824,1983.335281
95825,1985.403594
95826,1993.323189
95827,2014.561151
95828,2044.54656
95829,2065.896291
95830,2058.851327
95831,2014.681692
95832,1941.273809
95833,1857.360562
95834,1781.668803
95835,1726.339195
95836,1698.043114
95837,1701.935093
95838,1741.510454
95839,1813.356036
95840,1903.022146
95841,1988.727717
95842,2052.31092
95843,2089.022766
95844,2107.675641
95845,2121.005254
95846,2135.013859
95847,2146.761814
95848,2151.682208
95849,2152.107114
95850,2157.533844
95851,2175.465739
95852,2201.374108
95853,2217.923564
95854,2205.407828
95855,2155.154111
95856,2075.109875
95857,1984.072272
95858,1900.835004
95859,1837.607484
95860,1801.131079
95861,1796.630855
95862,1827.672541
95863,1890.912587
95864,1971.969468
95865,2049.128223
95866,2104.290474
95867,2132.76748
95868,2143.42816
95869,2149.060585
95870,2155.714797
95871,2160.494009
95872,2158.868954
95873,2153.203905
95874,2153.022763
95875,2165.849759
95876,2187.171344
95877,2199.661565
95878,2183.617953
95879,2130.36606
95880,2047.846426
95881,1954.844276
95882,1870.136695
95883,1805.912145
95884,1768.887095
95885,1764.2582
95886,1795.559722
95887,1859.414059
95888,1941.403554
95889,2019.775522
95890,2076.392788
95891,2106.527229
95892,2119.008303
95893,2126.585003
95894,2135.269138
95895,2142.126957
95896,2142.593895
95897,2139.000947
95898,2140.841083
95899,2155.610216
95900,2178.76933
95901,2192.970033
95902,2178.490577
95903,2126.64048
95904,2045.347525
95905,1953.387442
95906,1869.531013
95907,1805.963488
95908,1769.401056
95909,1765.042838
95910,1796.42807
95911,1860.186386
95912,1941.909322
95913,2019.855052
95914,2075.898583
95915,2105.324972
95916,2116.977497
95917,2123.619277
95918,2131.276206
95919,2137.028249
95920,2136.32387
95921,2131.506114
95922,2132.07875
95923,2145.547003
95924,2167.37947
95925,2180.2335
95926,2164.391089
95927,2111.163406
95928,2028.477743
95929,1935.107197
95930,1849.817813
95931,1784.788081
95932,1746.725535
95933,1740.818911
95934,1770.595538
95935,1832.671859
95936,1912.625211
95937,1988.69886
95938,2042.752526
95939,2070.055936
95940,2079.437369
95941,2083.645628
95942,2088.693354
95943,2091.648689
95944,2087.950066
95945,2079.932633
95946,2077.09473
95947,2086.938916
95948,2104.934164
95949,2113.741477
95950,2093.649983
95951,2035.981616
95952,1948.678179
95953,1850.531085
95954,1760.328514
95955,1690.274864
95956,1647.107259
95957,1636.047556
95958,1660.659535
95959,1717.599164
95960,1792.486082
95961,1863.608278
95962,1912.872224
95963,1935.595999
95964,1940.657355
95965,1940.855203
95966,1942.252393
95967,1941.966838
95968,1935.485748
95969,1925.191494
95970,1920.627522
95971,1929.338823
95972,1946.833594
95973,1955.80833
95974,1936.583428
95975,1880.507406
95976,1795.543549
95977,1700.499278
95978,1614.172972
95979,1548.773162
95980,1511.034815
95981,1506.171202
95982,1537.730996
95983,1602.348524
95984,1685.615294
95985,1765.7848
95986,1824.722833
95987,1857.700862
95988,1873.54442
95989,1884.994963
95990,1898.053092
95991,1909.770173
95992,1915.563107
95993,1917.740787
95994,1925.770629
95995,1947.119715
95996,1977.217117
95997,1998.679706
95998,1991.748456
95999,1947.693387
96000,1874.400914
96001,1790.603916
96002,1715.029238
96003,1659.817537
96004,1631.640182
96005,1635.651701
96006,1675.347408
96007,1747.314135
96008,1837.102184
96009,1922.930481
96010,1986.637191
96011,2023.473316
96012,2042.251238
96013,2055.706658
96014,2069.841825
96015,2081.717088
96016,2086.76553
96017,2087.319218
96018,2092.875456
96019,2110.937579
96020,2136.97689
96021,2153.657993
96022,2141.274604
96023,2091.153927
96024,2011.243416
96025,1920.340217
96026,1837.238024
96027,1774.146244
96028,1737.806236
96029,1733.443061
96030,1764.622438
96031,1828.000812
96032,1909.196651
96033,1986.494986
96034,2041.797433
96035,2070.415242
96036,2081.217326
96037,2086.99175
96038,2093.788547
96039,2098.710923
96040,2097.229605
96041,2091.708857
96042,2091.672575
96043,2104.644981
96044,2126.11252
96045,2138.74923
96046,2122.852637
96047,2069.748283
96048,1987.376702
96049,1894.523113
96050,1809.964592
96051,1745.889595
96052,1709.014581
96053,1704.536202
96054,1735.988707
96055,1799.994493
96056,1882.13589
96057,1960.660209
96058,2017.430266
96059,2047.717932
96060,2060.352655
96061,2068.083424
96062,2076.922038
96063,2083.934741
96064,2084.556958
96065,2081.119677
96066,2083.115861
96067,2098.041417
96068,2121.35732
96069,2135.71517
96070,2121.393214
96071,2069.70096
96072,1988.566185
96073,1896.76461
96074,1813.067011
96075,1749.658631
96076,1713.25565
96077,1709.057182
96078,1740.602457
96079,1804.5211
96080,1886.404639
96081,1964.511243
96082,2020.715909
96083,2050.303687
96084,2062.11785
96085,2068.921507
96086,2076.740546
96087,2082.654923
96088,2082.113095
96089,2077.458101
96090,2078.193702
96091,2091.825116
96092,2113.820931
96093,2126.838489
96094,2111.15978
96095,2058.095965
96096,1975.574329
96097,1882.367961
96098,1797.242899
96099,1732.377625
96100,1694.479666
96101,1688.737752
96102,1718.679203
96103,1780.920456
96104,1861.03884
96105,1937.277614
96106,1991.49649
96107,2018.96519
96108,2028.511982
