row_id,energy
94993,2022.987966
94994,1948.873877
94995,1894.276527
94996,1866.219906
94997,1870.101294
94998,1909.287872
94999,1980.116878
95000,2068.219184
95001,2152.352542
95002,2214.971704
95003,2251.492057
95004,2270.300324
95005,2283.534998
95006,2297.006455
95007,2308.15176
95008,2312.930503
95009,2313.768792
95010,2319.678957
95011,2337.568411
95012,2362.847281
95013,2378.838223
95014,2366.719202
95015,2318.185248
95016,2240.712961
95017,2152.164701
95018,2070.639662
95019,2008.284876
95020,1972.193041
95021,1967.830704
95022,1998.634213
95023,2061.009218
95024,2140.653603
95025,2216.390131
95026,2270.735981
95027,2299.165832
95028,2310.122071
95029,2315.794771
95030,2322.041401
95031,2326.341292
95032,2324.691177
95033,2319.548962
95034,2319.953273
95035,2332.832203
95036,2353.610915
95037,2365.621479
95038,2350.045738
95039,2298.577215
95040,2218.685807
95041,2128.222244
95042,2045.269452
95043,1981.953916
95044,1945.343884
95045,1940.877975
95046,1971.961581
95047,2034.966826
95048,2115.555997
95049,2192.514673
95050,2248.32176
95051,2278.413075
95052,2291.192031
95053,2298.810089
95054,2307.086914
95055,2313.465262
95056,2313.906913
95057,2310.8368
95058,2313.262864
95059,2328.085085
95060,2350.703306
95061,2364.427259
95062,2350.419562
95063,2300.357705
95064,2221.698793
95065,2132.283976
95066,2050.189769
95067,1987.539298
95068,1951.400362
95069,1947.213858
95070,1978.389952
95071,2041.307793
95072,2121.638662
95073,2198.178791
95074,2253.419086
95075,2282.808376
95076,2294.763756
95077,2301.450702
95078,2308.702891
95079,2313.97676
95080,2313.247129
95081,2308.951039
95082,2310.107335
95083,2323.625464
95084,2344.913087
95085,2357.285933
95086,2341.910665
95087,2290.466773
95088,2210.411259
95089,2119.583071
95090,2036.054443
95091,1971.942228
95092,1934.306079
95093,1928.577025
95094,1958.153852
95095,2019.403042
95096,2097.982186
95097,2172.673102
95098,2225.951872
95099,2253.252425
95100,2262.977234
95101,2267.277791
95102,2271.974786
95103,2274.513034
95104,2270.857446
95105,2263.43721
95106,2261.265698
95107,2271.249558
95108,2288.796601
95109,2297.225889
95110,2277.710797
95111,2221.941067
95112,2137.387604
95113,2041.90697
95114,1953.592744
95115,1884.586815
95116,1841.977476
95117,1831.227856
95118,1855.772107
95119,1912.015104
95120,1985.655557
95121,2055.5188
95122,2104.126431
95123,2126.959491
95124,2132.468692
95125,2132.854409
95126,2133.986348
95127,2133.357945
95128,2126.981792
95129,2117.333267
95130,2113.469894
95131,2122.339893
95132,2139.389534
95133,2147.972718
95134,2129.293551
95135,2075.067951
95136,1992.78803
95137,1900.326212
95138,1815.786284
95139,1751.31441
95140,1713.997017
95141,1709.289086
95142,1740.610239
95143,1804.344429
95144,1886.163089
95145,1964.858038
95146,2022.911301
95147,2055.758524
95148,2071.799518
95149,2083.178615
95150,2095.704768
95151,2106.80642
95152,2112.427469
95153,2114.971467
95154,2123.42159
95155,2144.649833
95156,2174.02503
95157,2194.823119
95158,2188.170421
95159,2145.705935
95160,2074.846426
95161,1993.391226
95162,1919.373945
95163,1864.874135
95164,1836.915778
95165,1840.896142
95166,1880.182399
95167,1951.11178
95168,2039.315144
95169,2123.550234
95170,2186.271794
95171,2222.895201
95172,2241.807166
95173,2255.146176
95174,2268.722593
95175,2279.973476
95176,2284.858403
95177,2285.803472
95178,2291.821005
95179,2309.818405
95180,2335.205787
95181,2351.305799
95182,2339.296394
95183,2290.872595
95184,2213.510989
95185,2125.073929
95186,2043.660597
95187,1981.418015
95188,1945.438872
95189,1941.189703
95190,1972.106849
95191,2034.595946
95192,2114.354872
95193,2190.206378
95194,2244.667631
95195,2273.213304
95196,2284.28577
95197,2290.075094
95198,2296.438735
95199,2300.856012
95200,2299.323648
95201,2294.299542
95202,2294.822305
95203,2307.820024
95204,2328.717849
95205,2340.847841
95206,2325.391833
95207,2274.043336
95208,2194.272239
95209,2103.92926
95210,2021.097316
95211,1957.90288
95212,1921.414192
95213,1917.06986
95214,1948.275264
95215,2011.40252
95216,2092.113903
95217,2169.194983
95218,2225.124654
95219,2255.338725
95220,2268.240598
95221,2275.981722
95222,2284.381754
95223,2290.883439
95224,2291.448546
95225,2288.501998
95226,2291.051726
95227,2305.997699
95228,2328.739752
95229,2342.587604
95230,2328.703864
95231,2278.766012
95232,2200.231141
95233,2110.940394
95234,2028.970273
95235,1966.443894
95236,1930.429048
95237,1926.366619
95238,1957.666764
95239,2020.708624
95240,2101.163466
95241,2177.827514
95242,2233.191664
95243,2262.704734
95244,2274.78381
95245,2281.594357
95246,2288.970041
95247,2294.367291
95248,2293.760916
95249,2289.587947
95250,2290.867219
95251,2304.508169
95252,2325.918447
95253,2338.413774
95254,2323.160802
95255,2271.83901
95256,2191.905393
95257,2101.198887
95258,2017.791716
95259,1953.800723
95260,1916.285552
95261,1910.677224
95262,1940.374511
95263,2001.743889
95264,2080.442937
95265,2155.253465
95266,2208.651543
95267,2236.071092
95268,2245.914576
95269,2250.333476
95270,2255.148473
95271,2257.804372
95272,2254.266075
95273,2246.962761
95274,2244.907791
95275,2255.007805
95276,2272.670604
95277,2281.215241
95278,2261.815081
95279,2206.159858
95280,2121.720466
95281,2026.353458
95282,1938.152405
95283,1869.259186
95284,1826.762085
95285,1816.124222
95286,1840.77974
95287,1897.133504
95288,1970.884217
95289,2040.857201
95290,2089.574048
95291,2112.515789
95292,2118.133127
95293,2118.626427
95294,2119.86539
95295,2119.343439
95296,2113.073159
95297,2103.52992
95298,2099.771236
95299,2108.74532
95300,2125.898432
95301,2134.584465
95302,2116.007517
95303,2061.883497
95304,1979.704508
95305,1887.342968
95306,1802.902653
95307,1738.52972
95308,1701.310589
95309,1696.70023
95310,1728.11826
95311,1791.94862
95312,1873.862739
95313,1952.652426
95314,2010.799699
95315,2043.740195
95316,2059.873718
95317,2071.344592
95318,2083.961761
95319,2095.153662
95320,2100.864185
95321,2103.496874
95322,2112.034898
95323,2133.350245
95324,2162.811739
95325,2183.695313
95326,2177.12728
95327,2134.746632
95328,2063.970126
95329,1982.597088
95330,1908.66112
95331,1854.241766
95332,1826.363002
95333,1830.42209
95334,1869.786194
95335,1940.792537
95336,2029.071974
95337,2113.382239
95338,2176.178069
95339,2212.874836
95340,2231.859245
95341,2245.269773
95342,2258.916779
95343,2270.237314
95344,2275.19095
95345,2276.203778
95346,2282.288115
95347,2300.351356
95348,2325.803612
95349,2341.967523
95350,2330.021038
95351,2281.659172
95352,2204.358507
95353,2115.981391
95354,2034.626998
95355,1972.442347
95356,1936.520119
95357,1932.326845
95358,1963.298859
95359,2025.841794
95360,2105.653519
95361,2181.556783
95362,2236.068747
95363,2264.664076
95364,2275.785142
95365,2281.622001
95366,2288.032109
95367,2292.494781
95368,2291.006733
95369,2286.02586
95370,2286.590769
95371,2299.62954
95372,2320.567321
95373,2332.736166
95374,2317.317906
95375,2266.006046
95376,2186.27047
95377,2095.961893
95378,2013.163227
95379,1950.000942
95380,1913.543272
95381,1909.228822
95382,1940.462968
95383,2003.617822
95384,2084.355655
95385,2161.462032
95386,2217.415846
95387,2247.6529
95388,2260.576593
95389,2268.338371
95390,2276.757887
95391,2283.277882
95392,2283.860123
95393,2280.92953
95394,2283.494029
95395,2298.453587
95396,2321.208035
95397,2335.067091
95398,2321.193359
95399,2271.264317
95400,2192.737056
95401,2103.452714
95402,2021.487793
95403,1958.965405
95404,1922.953339
95405,1918.892476
95406,1950.192971
95407,2013.233962
95408,2093.686714
95409,2170.34745
95410,2225.707063
95411,2255.214369
95412,2267.286452
95413,2274.088775
95414,2281.455003
95415,2286.841562
95416,2286.223261
95417,2282.037127
95418,2283.301996
95419,2296.927301
95420,2318.320693
95421,2330.797891
95422,2315.525545
95423,2264.183133
95424,2184.227649
95425,2093.498028
95426,2010.066493
95427,1946.049887
95428,1908.507852
95429,1902.871408
95430,1932.539328
95431,1993.878085
95432,2072.545259
95433,2147.322659
95434,2200.686356
95435,2228.070269
95436,2237.876862
95437,2242.257615
95438,2247.033211
95439,2249.648454
95440,2246.068247
95441,2238.721765
95442,2236.622374
95443,2246.676712
95444,2264.29258
95445,2272.789032
95446,2253.339435
95447,2197.63352
95448,2113.142184
95449,2017.72198
95450,1929.46648
95451,1860.517564
95452,1817.963516
95453,1807.267457
95454,1831.863532
95455,1888.156606
95456,1961.845383
95457,2031.755188
95458,2080.407613
95459,2103.283689
95460,2108.834122
95461,2109.259279
95462,2110.428861
95463,2109.836294
95464,2103.494164
95465,2093.877842
95466,2090.044845
95467,2098.943388
95468,2116.019732
95469,2124.627771
95470,2105.971608
95471,2051.767153
95472,1969.50651
95473,1877.062101
95474,1792.537703
95475,1728.079476
95476,1690.773842
95477,1686.075774
95478,1717.404891
95479,1781.145139
95480,1862.967947
95481,1941.665128
95482,1999.718702
95483,2032.56431
95484,2048.601759
95485,2059.975376
95486,2072.494107
95487,2083.586394
95488,2089.196129
95489,2091.72686
95490,2100.161758
95491,2121.372816
95492,2150.728861
95493,2171.505831
95494,2164.830039
95495,2122.340485
95496,2051.453927
95497,1969.969695
95498,1895.921396
95499,1841.388578
95500,1813.39522
95501,1817.338588
95502,1856.585851
95503,1927.474237
95504,2015.634602
95505,2099.824688
95506,2162.499236
95507,2199.07362
95508,2217.93455
95509,2231.22051
95510,2244.741861
95511,2255.93566
95512,2260.761484
95513,2261.645428
95514,2267.599813
95515,2285.532042
95516,2310.852228
95517,2326.883017
95518,2314.802362
95519,2266.305286
95520,2188.868374
95521,2100.353979
95522,2018.861282
95523,1956.537305
95524,1920.474737
95525,1916.140113
95526,1946.969773
95527,2009.369355
95528,2089.036735
95529,2164.794665
95530,2219.160314
95531,2247.608353
95532,2258.581158
95533,2264.268793
95534,2270.528718
95535,2274.840255
95536,2273.200126
95537,2268.066232
95538,2268.477187
95539,2281.361076
95540,2302.143053
95541,2314.15518
95542,2298.579292
95543,2247.108903
95544,2167.213902
95545,2076.74501
95546,1993.785147
95547,1930.460788
95548,1893.840174
95549,1889.361918
95550,1920.431401
95551,1983.420743
95552,2063.992221
95553,2140.931408
95554,2196.717203
95555,2226.785416
95556,2239.539452
95557,2247.130767
95558,2255.379018
95559,2261.726954
95560,2262.136351
95561,2259.032133
95562,2261.422235
95563,2276.206632
95564,2298.785161
95565,2312.467548
95566,2298.416405
95567,2248.309216
95568,2169.60308
95569,2080.139144
95570,1997.993915
95571,1935.290514
95572,1899.096737
95573,1894.853474
95574,1925.970887
95575,1988.828121
95576,2069.09645
95577,2145.572104
95578,2200.745984
95579,2230.066914
95580,2241.951985
95581,2248.56667
95582,2255.74464
95583,2260.94233
95584,2260.134556
95585,2255.758355
95586,2256.832569
95587,2270.266641
95588,2291.468229
95589,2303.75306
95590,2288.287793
95591,2236.751914
95592,2156.602426
95593,2065.67827
95594,1982.05168
95595,1917.839505
95596,1880.101398
95597,1874.268384
95598,1903.739248
95599,1964.88047
95600,2043.349638
95601,2117.92857
95602,2171.093345
95603,2198.277891
95604,2207.884681
95605,2212.065203
95606,2216.640149
95607,2219.054331
95608,2215.272661
95609,2207.724324
95610,2205.422692
95611,2215.274414
95612,2232.687299
95613,2240.98041
95614,2221.327121
95615,2165.417175
95616,2080.721476
95617,1985.096586
95618,1896.636085
95619,1827.481863
95620,1784.722212
95621,1773.820264
95622,1798.21017
95623,1854.296806
95624,1927.778884
95625,1997.481738
95626,2045.926969
95627,2068.595618
95628,2073.938399
95629,2074.155688
95630,2075.117194
95631,2074.316354
95632,2067.765762
95633,2057.940798
95634,2053.898989
95635,2062.588557
95636,2079.455774
95637,2087.854543
95638,2068.988975
95639,2014.574989
95640,1932.104699
95641,1839.450536
95642,1754.716285
95643,1690.048116
95644,1652.532461
95645,1647.624301
95646,1678.743264
95647,1742.273305
95648,1823.885863
95649,1902.372759
95650,1960.216023
95651,1992.851305
95652,2008.67842
95653,2019.841705
95654,2032.150117
95655,2043.032103
95656,2048.431568
95657,2050.752066
95658,2058.97678
95659,2079.977709
95660,2109.123692
95661,2129.690674
95662,2122.804979
95663,2080.105614
95664,2009.009347
95665,1927.315518
95666,1853.057742
95667,1798.315576
95668,1770.113009
95669,1773.847314
95670,1812.885672
95671,1883.565317
95672,1971.517117
95673,2055.498821
95674,2117.965178
95675,2154.331573
95676,2172.984725
95677,2186.063126
95678,2199.377146
95679,2210.363852
95680,2214.982828
95681,2215.66018
95682,2221.408236
95683,2239.134409
95684,2264.248821
95685,2280.074126
95686,2267.788288
95687,2219.086335
95688,2141.444864
95689,2052.726235
95690,1971.029639
95691,1908.502107
95692,1872.236335
95693,1867.698868
95694,1898.326054
95695,1960.52354
95696,2039.98921
95697,2115.545826
95698,2169.710565
95699,2197.958106
95700,2208.730834
95701,2214.218822
95702,2220.279538
95703,2224.392312
95704,2222.553876
95705,2217.222138
95706,2217.43572
95707,2230.122717
95708,2250.708291
95709,2262.524511
95710,2246.753222
95711,2195.087945
95712,2114.998578
95713,2024.335851
95714,1941.18269
95715,1877.665579
95716,1840.852769
95717,1836.182879
95718,1867.0613
95719,1929.860157
95720,2010.241738
95721,2086.991622
95722,2142.588717
95723,2172.46884
95724,2185.035407
95725,2192.439877
95726,2200.501918
95727,2206.664288
95728,2206.888767
95729,2203.600289
95730,2205.806796
95731,2220.408272
95732,2242.80456
95733,2256.305394
95734,2242.073393
95735,2191.786051
95736,2112.900472
95737,2023.257811
95738,1940.934583
95739,1878.053916
95740,1841.683614
95741,1837.264572
95742,1868.206962
95743,1930.889935
95744,2010.984772
95745,2087.287711
95746,2142.289659
95747,2171.439448
95748,2183.154175
95749,2189.59932
95750,2196.608563
95751,2201.638343
95752,2200.663486
95753,2196.121033
95754,2197.029833
95755,2210.299338
95756,2231.337211
95757,2243.459185
95758,2227.831926
95759,2176.134928
95760,2095.825199
95761,2004.741687
95762,1920.956632
95763,1856.586891
95764,1818.69212
95765,1812.703354
95766,1842.019381
95767,1903.00669
95768,1981.322873
95769,2055.749755
95770,2108.763421
95771,2135.797806
95772,2145.255386
95773,2149.287658
95774,2153.715318
95775,2155.983185
95776,2152.056175
95777,2144.36348
95778,2141.918478
95779,2151.627823
95780,2168.899329
95781,2177.052065
95782,2157.259412
95783,2101.211115
95784,2016.378086
95785,1920.616891
95786,1832.021116
95787,1762.732657
95788,1719.839809
95789,1708.80571
95790,1733.064517
95791,1789.02111
95792,1862.374205
95793,1931.949143
95794,1980.267528
95795,2002.810407
95796,2008.028498
95797,2008.122181
95798,2008.961171
95799,2008.03891
95800,2001.367994
95801,1991.423809
95802,1987.263887
95803,1995.836453
95804,2012.587785
95805,2020.871788
95806,2001.892578
95807,1947.366079
95808,1864.784408
95809,1772.019999
95810,1687.176644
95811,1622.400515
95812,1584.778047
95813,1579.764226
95814,1610.778684
95815,1674.205378
95816,1755.715752
95817,1834.10163
95818,1891.845046
95819,1924.381653
95820,1940.111269
95821,1951.178234
95822,1963.391509
95823,1974.179546
95824,1979.486249
95825,1981.715177
95826,1989.849518
95827,2010.761271
95828,2039.81928
95829,2060.299491
95830,2053.328232
95831,2010.544512
95832,1939.365102
95833,1857.589344
95834,1783.250857
95835,1728.429199
95836,1700.148362
95837,1703.805622
95838,1742.768161
95839,1813.373216
95840,1901.251657
95841,1985.161234
95842,2047.5567
95843,2083.853442
95844,2102.438179
95845,2115.449406
95846,2128.697495
95847,2139.619514
95848,2144.17505
95849,2144.790209
95850,2150.477322
95851,2168.143802
95852,2193.199774
95853,2208.967892
95854,2196.626122
95855,2147.869494
95856,2070.174606
95857,1981.403817
95858,1899.656321
95859,1837.07915
95860,1800.765001
95861,1796.180419
95862,1826.761753
95863,1888.914652
95864,1968.337
95865,2043.851559
95866,2097.975507
95867,2126.183524
95868,2136.917995
95869,2142.368994
95870,2148.393988
95871,2152.472309
95872,2150.600688
95873,2145.237033
95874,2145.419968
95875,2158.077586
95876,2178.63505
95877,2190.424429
95878,2174.627567
95879,2122.937985
95880,2042.825582
95881,1952.141086
95882,1868.967424
95883,1805.43108
95884,1768.600302
95885,1763.91371
95886,1794.776694
95887,1857.56138
95888,1937.930054
95889,2014.668294
95890,2070.255006
95891,2100.12601
95892,2112.684716
95893,2120.082586
95894,2128.139285
95895,2134.29757
95896,2134.51922
95897,2131.229168
95898,2133.435355
95899,2148.037763
95900,2170.436233
95901,2183.940499
95902,2169.713178
95903,2119.431761
95904,2040.553352
95905,1950.919103
95906,1868.605529
95907,1805.735755
95908,1769.377583
95909,1764.971907
95910,1795.928895
95911,1858.627698
95912,1938.739594
95913,2015.060819
95914,2070.082278
95915,2099.2528
95916,2110.989481
95917,2117.457797
95918,2124.491426
95919,2129.546806
95920,2128.598758
95921,2124.084322
95922,2125.022346
95923,2138.322275
95924,2159.391772
95925,2171.546567
95926,2155.953323
95927,2104.291531
95928,2024.018195
95929,1932.972262
95930,1849.225967
95931,1784.896165
95932,1747.042509
95933,1741.09603
95934,1770.455513
95935,1831.487443
95936,1909.84941
95937,1984.323235
95938,2037.384999
95939,2064.468632
95940,2073.97661
95941,2078.060424
95942,2082.540767
95943,2084.862454
95944,2080.990397
95945,2073.353785
95946,2070.965991
95947,2080.733665
95948,2098.064619
95949,2106.277916
95950,2086.546932
95951,2030.561411
95952,1945.792259
95953,1850.096038
95954,1761.566329
95955,1692.345024
95956,1649.520415
95957,1638.555634
95958,1662.884834
95959,1718.912891
95960,1792.338517
95961,1861.987045
95962,1910.380079
95963,1932.998658
95964,1938.293496
95965,1938.46497
95966,1939.382789
95967,1938.540388
95968,1931.950362
95969,1922.08809
95970,1918.011098
95971,1926.667609
95972,1943.503892
95973,1951.87385
95974,1932.981593
95975,1878.54304
95976,1796.050302
95977,1703.375809
95978,1618.623347
95979,1553.939081
95980,1516.409444
95981,1511.489413
95982,1542.598618
95983,1606.121008
95984,1687.728022
95985,1766.21148
95986,1824.053408
95987,1856.689455
95988,1872.519433
95989,1883.687677
95990,1896.003141
95991,1906.894271
95992,1912.304966
95993,1914.63878
95994,1922.878892
95995,1943.897299
95996,1973.062837
95997,1993.651446
95998,1986.789448
95999,1944.115847
96000,1873.047407
96001,1791.383465
96002,1717.157631
96003,1662.449461
96004,1634.282937
96005,1638.055331
96006,1677.133818
96007,1747.855629
96008,1835.851627
96009,1919.879558
96010,1982.394165
96011,2018.810831
96012,2037.516269
96013,2050.648965
96014,2064.019288
96015,2075.064297
96016,2079.743572
96017,2080.483214
96018,2086.295548
96019,2104.08798
96020,2129.270626
96021,2145.166137
96022,2132.952469
96023,2084.324648
96024,2006.759263
96025,1918.118669
96026,1836.50205
96027,1774.056434
96028,1737.874509
96029,1733.422816
96030,1764.137695
96031,1826.424788
96032,1905.981973
96033,1981.632006
96034,2035.892055
96035,2064.236796
96036,2075.108607
96037,2080.697553
96038,2086.861096
96039,2091.078559
96040,2089.346669
96041,2084.123324
96042,2084.447142
96043,2097.246211
96044,2117.945683
96045,2129.877622
96046,2114.223866
96047,2062.677928
96048,1982.709699
96049,1892.169901
96050,1809.141453
96051,1745.750832
96052,1709.06628
96053,1704.526409
96054,1735.536602
96055,1798.468977
96056,1878.985813
96057,1955.872682
96058,2011.608482
96059,2041.629025
96060,2054.337716
96061,2061.886007
96062,2070.093558
96063,2076.403117
96064,2076.776458
96065,2073.638505
96066,2075.997192
96067,2090.752493
96068,2113.304243
96069,2126.962169
96070,2112.888879
96071,2062.761859
96072,1984.038204
96073,1894.559059
96074,1812.400932
96075,1749.686941
96076,1713.48488
96077,1709.235636
96078,1740.34937
96079,1803.205226
96080,1883.474474
96081,1959.953343
96082,2015.13273
96083,2044.461458
96084,2056.356615
96085,2062.983671
96086,2070.176294
96087,2075.390918
96088,2074.602354
96089,2070.247636
96090,2071.345604
96091,2084.805698
96092,2106.035571
96093,2118.350947
96094,2102.918483
96095,2051.41766
96096,1971.305477
96097,1880.420873
96098,1796.836076
96099,1732.667934
96100,1694.976092
96101,1689.191574
96102,1718.71316
96103,1779.907324
96104,1858.431652
96105,1933.067957
96106,1986.292313
96107,2013.538643
96108,2023.209416
96109,2027.456115
