row_id,energy
94993,2026.5313318816245
94994,1951.0661844232282
94995,1895.9630789891537
94996,1867.8933939479425
94997,1872.0116632583843
94998,1911.8132095401488
94999,1983.8848727708787
95000,2073.7769607501627
95001,2159.7084081722915
95002,2223.5173870020462
95003,2260.4549079954736
95004,2279.3333594223773
95005,2292.8884498215275
95006,2307.122435961517
95007,2319.0956745175627
95008,2324.2412571382465
95009,2324.8912564775796
95010,2330.5429846380425
95011,2348.6997855481586
95012,2374.8329679972626
95013,2391.6071451950634
95014,2379.316039338344
95015,2329.2868619697456
95016,2249.467076393676
95017,2158.6538349893954
95018,2075.640838652391
95019,2012.637504401979
95020,1976.3851966322034
95021,1972.1089840029922
95022,2003.3745948510543
95023,2066.838479874842
95024,2148.1191153548993
95025,2225.5015405826352
95026,2280.887378681866
95027,2309.5878867201027
95028,2320.4719867162094
95029,2326.3277493777955
95030,2333.205216116251
95031,2338.2076015717685
95032,2336.805639326484
95033,2331.363600680517
95034,2331.4053894482918
95035,2344.45523507396
95036,2365.9995907814814
95037,2378.712501857423
95038,2362.8915010581527
95039,2309.8621396636804
95040,2227.564957566895
95041,2134.7851816817874
95042,2050.299895668165
95043,1986.2975624850649
95044,1949.494649937953
95045,1945.0878157177983
95046,1976.6113189348202
95047,2040.6875607086079
95048,2122.8988807857136
95049,2201.492597415282
95050,2258.331533247828
95051,2288.687566792923
95052,2301.390154823046
95053,2309.1882915745255
95054,2318.0937846031975
95055,2325.1728842156526
95056,2325.8610242665764
95057,2322.489199806487
95058,2324.5503806943016
95059,2339.5404802173207
95060,2362.920482799419
95061,2377.3419939158266
95062,2363.0832679087243
95063,2311.453821593854
95064,2230.381437123379
95065,2138.64184408749
95066,2055.005825367688
95067,1991.6586301191658
95068,1955.316446850708
95069,1951.1783962449033
95070,1982.7837144251548
95071,2046.7620334629205
95072,2128.70489064669
95073,2206.870458696506
95074,2263.1337448357617
95075,2292.7798037292387
95076,2304.6519150306794
95077,2311.513197079772
95078,2319.3895420310705
95079,2325.3609147503025
95080,2324.875778490489
95081,2320.277177781521
95082,2321.0688822797283
95083,2334.7561148533932
95084,2356.8074717953177
95085,2369.8803015607464
95086,2354.2566004831656
95087,2301.2475355216948
95088,2218.78039905879
95089,2125.6282866538527
95090,2040.5572425274624
95091,1975.7457557738596
95092,1937.9013592320844
95093,1932.2127889947974
95094,1962.207372961733
95095,2024.5015523639956
95096,2104.672664367048
95097,2180.9639739909076
95098,2235.2351989199205
95099,2262.7560673571643
95100,2272.3548547050445
95101,2276.7803651074637
95102,2282.0452376725466
95103,2285.217614021529
95104,2281.7359244675567
95105,2273.935317603801
95106,2271.314131493038
95107,2281.374924388679
95108,2299.586667794486
95109,2308.610363500516
95110,2288.735138726324
95111,2231.2829255411316
95112,2144.195526234022
95113,2046.2643527839011
95114,1956.277582986253
95115,1886.439614793485
95116,1843.4875699843992
95117,1832.643304896436
95118,1857.4705973392638
95119,1914.6254148093474
95120,1989.7273941150315
95121,2061.064523304947
95122,2110.5432727739226
95123,2133.4817196264703
95124,2138.75761557023
95125,2139.1698693941285
95126,2140.7813293359386
95127,2140.709907853067
95128,2134.442812320086
95129,2124.362412895438
95130,2120.012152388247
95131,2128.937022796513
95132,2146.6452180691595
95133,2155.833231423981
95134,2136.8214578631287
95135,2080.958414362306
95136,1996.2073853757092
95137,1901.3757873790096
95138,1815.2620001914356
95139,1750.0745511618206
95140,1712.5484073284238
95141,1707.8968367648517
95142,1739.6685107653882
95143,1804.4977540107695
95144,1887.9760740332588
95145,1968.3569612171445
95146,2027.5062058951698
95147,2060.695275476705
95148,2076.7496998783804
95149,2088.4109336515335
95150,2101.679576682314
95151,2113.606991823333
95152,2119.610078206136
95153,2121.997726069839
95154,2130.2373520212595
95155,2151.796032992432
95156,2182.102841610822
95157,2203.7746442177418
95158,2197.0524147785477
95159,2153.2061696246114
95160,2080.1223230801547
95161,1996.5337501016354
95162,1921.1672961815984
95163,1866.163613334439
95164,1838.1940702571057
95165,1842.4131912071784
95166,1882.3162890749088
95167,1954.4901940820798
95168,2044.4852042437158
95169,2130.520244442515
95170,2194.4334768073895
95171,2231.4759022317003
95172,2250.4598990969876
95173,2264.1211660310387
95174,2278.4619498655984
95175,2290.5425973165698
95176,2295.7961900495848
95177,2296.5547907141563
95178,2302.315701386495
95179,2320.582255946668
95180,2346.825753115606
95181,2363.710796013577
95182,2351.53109673049
95183,2301.6138566840264
95184,2221.906529021633
95185,2131.206255970289
95186,2048.306728240368
95187,1985.4173526533125
95188,1949.2794833875612
95189,1945.1181788737167
95190,1976.4991572036383
95191,2040.0788588144985
95192,2121.475749713199
95193,2198.974858903511
95194,2254.4777992095082
95195,2283.2958173839625
95196,2294.297825121912
95197,2300.271882795037
95198,2307.26802146737
95199,2312.389445421987
95200,2311.1068778743415
95201,2305.784579748877
95202,2305.946444476337
95203,2319.116691106808
95204,2340.781762466237
95205,2353.615693434064
95206,2337.916006353716
95207,2285.0082420867957
95208,2202.832930107796
95209,2110.1752868875096
95210,2025.812385667858
95211,1961.9326789667334
95212,1925.2526241534822
95213,1920.968868472884
95214,1952.615660596274
95215,2016.8153911974262
95216,2099.1503895742267
95217,2177.867963543627
95218,2234.830925297904
95219,2265.311142907587
95220,2278.1380627029735
95221,2286.0606684798654
95222,2295.090757355865
95223,2302.2945692048097
95224,2303.1075274497925
95225,2299.8606167145886
95226,2302.046796437003
95227,2317.1619694880205
95228,2340.6671098811807
95229,2355.2138126871196
95230,2341.080321852432
95231,2289.5761438037243
95232,2208.6290503109544
95233,2117.0147605925545
95234,2033.5040471668242
95235,1970.2821488357708
95236,1934.065243763923
95237,1930.052442302369
95238,1961.7829702542535
95239,2025.8864493806557
95240,2107.9544066740486
95241,2186.2450045665396
95242,2242.6332400249808
95243,2272.4041574455696
95244,2284.401026243879
95245,2291.386954534515
95246,2299.3878242612814
95247,2305.4835900956245
95248,2305.1227051131855
95249,2300.648203683875
95250,2301.5638453223123
95251,2315.374842771237
95252,2337.5497822191546
95253,2350.746002035822
95254,2335.2454884885956
95255,2282.3593984912254
95256,2200.015014402102
95257,2106.985421777708
95258,2022.036654857288
95259,1957.3471927763317
95260,1919.624558439741
95261,1914.0574780276434
95262,1944.1732695520418
95263,2006.5883643802904
95264,2086.880089840961
95265,2163.2917011400973
95266,2217.682906176632
95267,2245.323423393619
95268,2255.0415184607305
95269,2259.5859858166173
95270,2264.9694548922953
95271,2268.260057659989
95272,2264.8962148149412
95273,2257.2130653593763
95274,2254.70893779651
95275,2264.886380851757
95276,2283.2143565292386
95277,2292.3538571519343
95278,2272.594000506767
95279,2215.2567092604045
95280,2128.2837763326393
95281,2030.4666043713905
95282,1940.5933618561437
95283,1870.8684374867746
95284,1828.0289438045766
95285,1817.2967279502973
95286,1842.235558572766
95287,1899.5013940422928
95288,1974.7138620796798
95289,2046.160941682273
95290,2095.74909423241
95291,2118.7963878595274
95292,2124.180565333405
95293,2124.700526546765
95294,2126.4191108785553
95295,2126.454221968298
95296,2120.293058412305
95297,2110.3179816324414
95298,2106.072425742598
95299,2115.1013740854028
95300,2132.9130119984975
95301,2142.203824130689
95302,2123.2941969571525
95303,2067.5326389707225
95304,1982.882426186886
95305,1888.1509666861948
95306,1802.1366319373265
95307,1737.0479409835402
95308,1699.6198526049398
95309,1695.0656266605638
95310,1726.9339262749963
95311,1791.8590680152176
95312,1875.4325513332421
95313,1955.907858589084
95314,2015.1507721353203
95315,2048.432751460309
95316,2064.579318590804
95317,2076.3319202491853
95318,2089.6911485387536
95319,2101.708358580308
95320,2107.800441823622
95321,2110.2762808750317
95322,2118.6032847621022
95323,2140.248522886834
95324,2170.641060399541
95325,2192.3977562154596
95326,2185.759576928558
95327,2141.996531550053
95328,2068.99502713685
95329,1985.487931432693
95330,1910.2020827709744
95331,1855.2781260613694
95332,1827.3874229496441
95333,1831.6844906984102
95334,1871.6646352588448
95335,1943.914679966546
95336,2033.984916008701
95337,2120.094261495944
95338,2184.0808718415387
95339,2221.195741280367
95340,2240.251241592012
95341,2253.9830648617285
95342,2268.393451434219
95343,2280.5427415979093
95344,2285.8640106495345
95345,2286.6893149278435
95346,2292.5159502588203
95347,2310.847244327346
95348,2337.154489727689
95349,2354.1022835039453
95350,2341.9843317349782
95351,2292.1278298871352
95352,2212.480225217874
95353,2121.8386541256496
95354,2038.9968015550842
95355,1976.1640686106384
95356,1940.08180383844
95357,1935.9750600827472
95358,1967.4095499157181
95359,2031.0417083176208
95360,2112.489995901445
95361,2190.039436341071
95362,2245.5916371912886
95363,2274.4578400035284
95364,2285.5069513325684
95365,2291.5270264746855
95366,2298.568091482911
95367,2303.7333456936503
95368,2302.493507442135
95369,2297.212832835711
95370,2297.415210553345
95371,2310.624854961226
95372,2332.3282042648702
95373,2345.199288789931
95374,2329.535626391326
95375,2276.6627535112616
95376,2194.5211952685536
95377,2101.8961638459673
95378,2017.5647282646914
95379,1953.7153368886534
95380,1917.0644430005827
95381,1912.8086898253414
95382,1944.4823220842443
95383,2008.7077265632324
95384,2091.06722875509
95385,2169.8081327181512
95386,2226.793246969612
95387,2257.294435968152
95388,2270.1411425051238
95389,2278.0823468999192
95390,2287.1298428677787
95391,2294.3498669454802
95392,2295.1778392907618
95393,2291.944741330715
95394,2294.1435293764366
95395,2309.2701032396994
95396,2332.7854339466194
95397,2347.3411136504737
95398,2333.2153834485625
95399,2281.717746989618
95400,2200.7759733356856
95401,2109.165779067538
95402,2025.6579341368067
95403,1962.437674846609
95404,1926.221176936917
95405,1922.2075484024524
95406,1953.9360127612301
95407,2018.0361895602648
95408,2100.0996036486927
95409,2178.3844153871532
95410,2234.7656197397864
95411,2264.5282591725813
95412,2276.5156012434227
95413,2283.490752279208
95414,2291.4795925061694
95415,2297.5620749506834
95416,2297.1866511153908
95417,2292.696353867329
95418,2293.5949412892564
95419,2307.387624766035
95420,2329.542989196464
95421,2342.7183717370285
95422,2327.1957575064926
95423,2274.286302347989
95424,2191.9172876174653
95425,2098.8617979413857
95426,2013.8858667009456
95427,1949.167972245044
95428,1911.4156367633036
95429,1905.8175857924364
95430,1935.901136771865
95431,1998.2827205709632
95432,2078.539664087712
95433,2154.915222171821
95434,2209.2691024371516
95435,2236.8710231129317
95436,2246.549249726171
95437,2251.052576644953
95438,2256.393633301202
95439,2259.640551739945
95440,2256.2317527977257
95441,2248.5023756926644
95442,2245.950749213801
95443,2256.079422444448
95444,2274.3573578158866
95445,2283.4455481525665
95446,2263.6331118088433
95447,2206.2419720950807
95448,2119.2139226428185
95449,2021.34036688367
95450,1931.4094741508516
95451,1861.625634067587
95452,1818.7259601710548
95453,1807.9323006673608
95454,1832.808425341469
95455,1890.0102937694933
95456,1965.1575349439895
95457,2036.5381292229433
95458,2086.0585393902497
95459,2109.036835065895
95460,2114.350760577211
95461,2114.799217440953
95462,2116.445046731175
95463,2116.4061538512933
95464,2110.1697392322462
95465,2100.118166197528
95466,2095.7948708316076
95467,2104.7448385190487
95468,2122.476256705548
95469,2131.6856122170775
95470,2112.6932937746406
95471,2056.847812184753
95472,1972.1124458454672
95473,1877.2946052864975
95474,1791.1926644942891
95475,1726.015145096948
95476,1688.4970085269322
95477,1683.8515173626279
95478,1715.6273375144617
95479,1780.4587884039893
95480,1863.9373724022219
95481,1944.3165748553422
95482,2003.4621811685947
95483,2036.6456539492497
95484,2052.692518408065
95485,2064.344224517223
95486,2077.6013676965717
95487,2089.515306446918
95488,2095.502935662654
95489,2097.873141460765
95490,2106.0933364453454
95491,2127.630593656074
95492,2157.9139819463635
95493,2179.560363999612
95494,2172.8107102400104
95495,2128.93503357304
95496,2055.8197450134235
95497,1972.1977163245554
95498,1896.7957899230496
95499,1841.7546148641718
95500,1813.7455570003222
95501,1817.9231378640397
95502,1857.7826677372059
95503,1929.910974347738
95504,2019.8583533362705
95505,2105.8437273279374
95506,2169.705256310689
95507,2206.6939391543065
95508,2225.6221523342892
95509,2239.2255926901685
95510,2253.506505380961
95511,2265.525235568515
95512,2270.714863482197
95513,2271.4074504515984
95514,2277.1002973494037
95515,2295.2967369731614
95516,2321.4680670775742
95517,2338.278889929951
95518,2326.022916890403
95519,2276.027348755167
95520,2196.239638180635
95521,2105.4569270107245
95522,2022.4729056955587
95523,1959.4969808989983
95524,1923.270506782091
95525,1919.018541858749
95526,1950.306804424833
95527,2013.7917352404108
95528,2095.0918007499736
95529,2172.4920305122355
95530,2227.8940380221484
95531,2256.609070822555
95532,2267.506041512363
95533,2273.3730114834684
95534,2280.260012937847
95535,2285.2702514114717
95536,2283.8744514888035
95537,2278.436875579051
95538,2278.48141871285
95539,2291.532301657592
95540,2313.075969069596
95541,2325.7864577746764
95542,2309.9612921782136
95543,2256.9260153182677
95544,2174.621158960125
95545,2081.831941980129
95546,1997.335440140251
95547,1933.3201085952328
95548,1896.5024074528033
95549,1892.0789868281242
95550,1923.584098364795
95551,1987.64013582099
95552,2069.8294317063123
95553,2148.3992971410144
95554,2205.2125477470627
95555,2235.541055132804
95556,2248.2142692831303
95557,2255.981177753054
95558,2264.853581536273
95559,2271.897724490262
95560,2272.5490341353393
95561,2269.1384993032734
95562,2271.1590837484664
95563,2286.106694769815
95564,2309.4423109183867
95565,2323.8175319127113
95566,2309.5106064546753
95567,2257.831045836561
95568,2176.706626802796
95569,2084.913073654
95570,2001.2211640983498
95571,1937.8161422351802
95572,1901.4141916354954
95573,1897.214428161563
95574,1928.7560832345569
95575,1992.668784341688
95576,2074.5440643055213
95577,2152.6400914944024
95578,2208.8318689163248
95579,2238.4044471134143
95580,2250.20110175314
95581,2256.9849473040567
95582,2264.781872167964
95583,2270.6718375777477
95584,2270.1033032731143
95585,2265.4193103904727
95586,2266.1236253120956
95587,2279.7214677510347
95588,2301.6814309691413
95589,2314.66086050635
95590,2298.94174990125
95591,2245.8352634446874
95592,2163.2686909539116
95593,2070.0151255678975
95594,1984.8406091908428
95595,1919.9236287252393
95596,1881.9717149390576
95597,1876.173601974569
95598,1906.0566159017676
95599,1968.2371962425257
95600,2048.2926785737986
95601,2124.4663264472665
95602,2178.6178562021823
95603,2206.0169948140565
95604,2215.4920165808735
95605,2219.791724661543
95606,2224.928757300487
95607,2227.9712553757818
95608,2224.357648577964
95609,2216.423084998742
95610,2213.665902319
95611,2223.588658533277
95612,2241.6603250034127
95613,2250.541903501123
95614,2230.5225213449958
95615,2172.9241108274946
95616,2085.6884745839106
95617,1987.6070250440034
95618,1897.4679405857005
95619,1827.475619872629
95620,1784.3671855019147
95621,1773.3644947475
95622,1798.0313264850538
95623,1855.0236493899076
95624,1929.9611015657001
95625,2001.1316724938606
95626,2050.441834094154
95627,2073.2096651332777
95628,2078.312919095322
95629,2078.5505066646815
95630,2079.9852780913156
95631,2079.7351479658605
95632,2073.2873259124917
95633,2063.0241844577463
95634,2058.4891688964763
95635,2067.2272738305187
95636,2084.7466959295316
95637,2093.743931249373
95638,2074.5393777472073
95639,2018.4815554710895
95640,1933.5337520638268
95641,1838.5033873058524
95642,1752.1888444372394
95643,1686.79865434341
95644,1649.0677877151502
95645,1644.2095163937033
95646,1675.7725155538658
95647,1740.3911138807648
95648,1823.6568230117123
95649,1903.823137554554
95650,1962.7558521945184
95651,1995.7264387890737
95652,2011.5604318185926
95653,2022.999290517786
95654,2036.043619566374
95655,2047.7447867228734
95656,2053.519696136221
95657,2055.677243174539
95658,2063.684849689116
95659,2085.0095979610373
95660,2115.0805660806923
95661,2136.514625967085
95662,2129.5527572655133
95663,2085.4649821024677
95664,2012.137720705314
95665,1928.303854042484
95666,1852.6902337271088
95667,1797.4375180027205
95668,1769.2170819025612
95669,1773.1834561289184
95670,1812.83196012375
95671,1884.7494307655118
95672,1974.4861728351375
95673,2060.2611180849135
95674,2123.912435619359
95675,2160.691133412861
95676,2179.4095970325116
95677,2192.803532396166
95678,2206.875193727674
95679,2218.684935239117
95680,2223.66584619747
95681,2224.149996952627
95682,2229.6346973837044
95683,2247.623289277421
95684,2273.587079362115
95685,2290.190678861152
95686,2277.7278080747624
95687,2227.5256767206824
95688,2147.5317463580423
95689,2056.5431677200827
95690,1973.353640109103
95691,1910.1725790480284
95692,1873.741347519339
95693,1869.2850128414957
95694,1900.369302096995
95695,1963.6506648061509
95696,2044.7475761555856
95697,2121.945074422951
95698,2177.144781799235
95699,2205.657954500682
95700,2216.3535137743365
95701,2222.0195296388097
95702,2228.7060428959053
95703,2233.5162676576865
95704,2231.9209370590656
95705,2226.2843220341306
95706,2226.130326112626
95707,2238.983178532285
95708,2260.329332395124
95709,2272.842832944287
95710,2256.8212129741883
95711,2203.590023883929
95712,2121.0898057713734
95713,2028.1057858159577
95714,1943.4150480525961
95715,1879.2060558792173
95716,1842.1952776176724
95717,1837.579371564642
95718,1868.8925975124378
95719,1932.7573573449054
95720,2014.7559916523803
95721,2093.135819611847
95722,2149.759664864791
95723,2179.89940701637
95724,2192.384503998226
95725,2199.9639512887848
95726,2208.64955776822
95727,2215.5075751451213
95728,2215.9734387576455
95729,2212.3781452168
95730,2214.2146660227027
95731,2228.9789161824147
95732,2252.1318819185512
95733,2266.325170583488
95734,2251.8370384771765
95735,2199.9770044508964
95736,2118.6728527695045
95737,2026.7003152159086
95738,1942.8301769417576
95739,1879.2476894503764
95740,1842.6690436766557
95741,1838.293362806749
95742,1869.6598855466139
95743,1933.3982466249247
95744,2015.0999860665647
95745,2093.0232794001818
95746,2149.0431367523784
95747,2178.4446157416055
95748,2190.0709990689866
95749,2196.6854081942574
95750,2204.3137384664915
95751,2210.0359580228687
95752,2209.3005334635995
95753,2204.450512741219
95754,2204.989669010571
95755,2218.423228709542
95756,2240.21979178258
95757,2253.036710406501
95758,2237.155984709415
95759,2183.8887855267253
95760,2101.162409173561
95761,2007.7499552408945
95762,1922.4174720396381
95763,1857.3434528177256
95764,1819.235434664762
95765,1813.2821579798715
95766,1843.0109550460113
95767,1905.0382715495878
95768,1984.9414491834216
95769,2060.963757566098
95770,2114.9649190530126
95771,2142.214666588858
95772,2151.5412803886766
95773,2155.6935694791814
95774,2160.6841779216575
95775,2163.5812523601307
95776,2159.823228201781
95777,2151.745259201208
95778,2148.845688652704
95779,2158.6270801110604
95780,2176.558410447063
95781,2185.3006868879106
95782,2165.1430421579894
95783,2107.4074139005443
95784,2020.0356100487347
95785,1921.8190482771454
95786,1831.5459121555548
95787,1761.4206054882563
95788,1718.180255947358
95789,1707.0467258445767
95790,1731.5837990300124
95791,1788.4474490934363
95792,1863.2573190164321
95793,1934.3014030798338
95794,1983.4861779633989
95795,2006.1297271327103
95796,2011.1098087190264
95797,2011.2253379922868
95798,2012.5391697368987
95799,2012.1692230185065
95800,2005.602711881459
95801,1995.222013215694
95802,1990.570576623417
95803,1999.1934009536408
95804,2016.5986870692232
