row_id,energy
94993,2021.9593304746602
94994,1946.772039351943
94995,1892.0588756311643
94996,1864.6972464207965
94997,1869.7094307094023
94998,1910.1179152695065
94999,1982.0760191658132
95000,2071.156794409014
95001,2156.096160232668
95002,2219.332210756948
95003,2256.3013737989813
95004,2275.4612967986595
95005,2289.0119411636215
95006,2302.7404126892475
95007,2313.9878186534397
95008,2318.6658697598323
95009,2319.3178791557534
95010,2325.203921526751
95011,2343.4019930751765
95012,2369.1954143955923
95013,2385.4668306706294
95014,2372.898532854806
95015,2322.997323438528
95016,2243.5469973415993
95017,2153.0676339793995
95018,2070.291030709609
95019,2007.6412499664443
95020,1972.0663862474805
95021,1968.659913555467
95022,2000.5153330537187
95023,2063.856121516106
95024,2144.3239753745206
95025,2220.721314804891
95026,2275.5499942283013
95027,2304.3069031528717
95028,2315.506338973486
95029,2321.400638118988
95030,2327.8245976457083
95031,2332.1619816512757
95032,2330.361833720895
95033,2324.999249948909
95034,2325.3603770477894
95035,2338.543477108793
95036,2359.846300982252
95037,2372.160123877801
95038,2356.1701652890692
95039,2303.3806144860555
95040,2221.567329144574
95041,2129.2373994836207
95042,2045.1049037567232
95043,1981.5718227377479
95044,1945.5602139068903
95045,1942.1340002833003
95046,1974.354087625882
95047,2038.40880422482
95048,2119.902651631829
95049,2197.599324161204
95050,2253.9609369572877
95051,2284.4441400350634
95052,2297.522993540759
95053,2305.410084497766
95054,2313.901411315171
95055,2320.343325001991
95056,2320.6492433064977
95057,2317.3607878425332
95058,2319.7331047984026
95059,2334.8362074792676
95060,2357.9425799778346
95061,2371.921393574132
95062,2357.4390566699826
95063,2305.9843188875925
95064,2225.320997014508
95065,2133.9475159204762
95066,2050.5725918796493
95067,1987.5960278952787
95068,1951.9407246405112
95069,1948.6742652282578
95070,1980.8637913682956
95071,2044.7061695126679
95072,2125.81644004195
95073,2202.9705124425673
95074,2258.644051586581
95075,2288.308238166939
95076,2300.452284068325
95077,2307.3041888018056
95078,2314.6752688796164
95079,2319.9267546559827
95080,2318.9861762382043
95081,2314.4081936322405
95082,2315.459636494822
95083,2329.220596107303
95084,2350.9718127947935
95085,2363.5887137734844
95086,2347.741825076689
95087,2294.921780421796
95088,2212.891996304534
95089,2120.148207401071
95090,2035.3941899861884
95091,1971.02264257817
95092,1933.947326360366
95093,1929.2248218834382
95094,1959.9096172442594
95095,2022.184523394272
95096,2101.6494061187395
95097,2177.064193579225
95098,2230.8881000641964
95099,2258.575744008368
95100,2268.600035947739
95101,2273.1733168765077
95102,2278.0922732517615
95103,2280.7049173116993
95104,2276.9273484284854
95105,2269.304944832042
95106,2267.097745348583
95107,2277.3818582539634
95108,2295.4371352168832
95109,2304.1414603978
95110,2284.1713738856274
95111,2227.0272483132035
95112,2140.4860844704417
95113,2043.061117129328
95114,1953.4775564792053
95115,1884.1534328639968
95116,1842.0316464975012
95117,1832.2015783745028
95118,1857.7539782619547
95119,1914.9111266129441
95120,1989.315261961292
95121,2059.7712353768593
95122,2108.7853359795636
95123,2131.8609695663104
95124,2137.5210705938407
95125,2138.028733103075
95126,2139.2315924308077
95127,2138.528252369134
95128,2131.8844798510677
95129,2121.8938231079965
95130,2117.862419734804
95131,2126.909838663228
95132,2144.3562009251023
95133,2153.115936129422
95134,2133.8979005071474
95135,2078.230081831541
95136,1993.9119631546544
95137,1899.4737422953044
95138,1813.6517377981531
95139,1748.868953712917
95140,1712.066908979646
95141,1708.3270912188311
95142,1740.725753433786
95143,1805.4640525611726
95144,1888.1565226930645
95145,1967.5738449312698
95146,2026.1818575800892
95147,2059.437487589315
95148,2075.811481474593
95149,2087.5094186073625
95150,2100.3165352421283
95151,2111.5646497204866
95152,2117.1489060747053
95153,2119.5889864740147
95154,2128.1145529249384
95155,2149.7667557007376
95156,2179.7860464141577
95157,2201.0066454222747
95158,2194.0573818747557
95159,2150.3871240273816
95160,2077.7178640207694
95161,1994.504646312403
95162,1919.411662841679
95163,1864.7934798615756
95164,1837.527495064044
95165,1842.6359779931945
95166,1883.1414059505446
95167,1955.197088504998
95168,2044.376068144346
95169,2129.4142545538516
95170,2192.7497322827444
95171,2229.8189195519317
95172,2249.0794541811047
95173,2262.731287936525
95174,2276.5615169479356
95175,2287.911238806584
95176,2292.6921545074056
95177,2293.4475674689506
95178,2299.4375426277093
95179,2317.7400664162765
95180,2343.6384496409682
95181,2360.015327676579
95182,2347.5529816538137
95183,2297.758204222535
95184,2218.414780431565
95185,2128.042779831161
95186,2045.3739898825668
95187,1982.8324631121152
95188,1947.3662840931577
95189,1944.0689168917993
95190,1976.0338527204979
95191,2039.4845583871706
95192,2120.0627203466784
95193,2196.570748785197
95194,2251.5104881232023
95195,2280.37881785447
95196,2291.69002535171
95197,2297.69643701064
95198,2304.232839844297
95199,2308.682987898436
95200,2306.9959146979863
95201,2301.7467062691853
95202,2302.2214992495237
95203,2315.5185456460617
95204,2336.9355862220464
95205,2349.363886092055
95206,2333.488654649914
95207,2280.814071061427
95208,2199.115982899256
95209,2106.901470255576
95210,2022.8846012832632
95211,1959.4673466334448
95212,1923.571753669452
95213,1920.2617352846773
95214,1952.5981871203062
95215,2016.769427342991
95216,2098.3799473789504
95217,2176.1934314342434
95218,2232.671984520104
95219,2263.2722465382844
95220,2276.46826751957
95221,2284.4726243744217
95222,2293.081305402147
95223,2299.640651508279
95224,2300.06407033955
95225,2296.893173413982
95226,2299.3830968304023
95227,2314.603843810085
95228,2337.8278883685766
95229,2351.9243917152185
95230,2337.55975219091
95231,2286.222709364014
95232,2205.6770699759313
95233,2114.421248861342
95234,2031.163952268558
95235,1968.304973185628
95236,1932.7672022801094
95237,1929.6182126726471
95238,1961.9251360925846
95239,2025.8848290220158
95240,2107.112321886499
95241,2184.3835142261114
95242,2240.1740609983167
95243,2269.9551329701912
95244,2282.215932131347
95245,2289.1844481113367
95246,2296.67198755568
95247,2302.039770968908
95248,2301.215318625892
95249,2296.753280718013
95250,2297.9204771060913
95251,2311.7969892921556
95252,2333.663547843641
95253,2346.3955702381736
95254,2330.663572790267
95255,2277.9581795195904
95256,2196.042797245801
95257,2103.4131509903755
95258,2018.773007395358
95259,1954.5150553691547
95260,1917.5530465100455
95261,1912.943551805521
95262,1943.741049814304
95263,2006.128341973905
95264,2085.705284582663
95265,2161.2317963383584
95266,2215.1670820944146
95267,2242.9657508760165
95268,2253.1007038370726
95269,2257.7842726172967
95270,2262.813134347556
95271,2265.5352919680277
95272,2261.8668355839854
95273,2254.353134185566
95274,2252.2542173905613
95275,2262.646184298068
95276,2280.808877428331
95277,2289.6201718259676
95278,2269.7565984985026
95279,2212.71852102739
95280,2126.2829311843866
95281,2028.9630547616016
95282,1939.484092983475
95283,1870.2640672922685
95284,1828.2458690151195
95285,1818.5188703008532
95286,1844.1738121063074
95287,1901.4329661087352
95288,1975.9385621047802
95289,2046.4954424631621
95290,2095.609887641248
95291,2118.785294810598
95292,2124.544589839669
95293,2125.1508582224737
95294,2126.4517267860247
95295,2125.8457908533533
95296,2119.2988089277574
95297,2109.4043208522885
95298,2105.468455874542
95299,2114.6107746185085
95300,2132.1513898520775
95301,2141.0047229621878
95302,2121.879621999435
95303,2066.3040666004554
95304,1982.0775317244616
95305,1887.7302071405527
95306,1801.9984033879064
95307,1737.3051165553018
95308,1700.5918576687802
95309,1696.9401064779881
95310,1729.4261081597701
95311,1794.251011879879
95312,1877.0293439923669
95313,1956.531777916509
95314,2015.2241443177568
95315,2048.5633625655273
95316,2065.020171625805
95317,2076.800143380656
95318,2089.688506640804
95319,2101.0170723543947
95320,2106.680977209822
95321,2109.199896080734
95322,2117.8034837310224
95323,2139.5328832398527
95324,2169.6285390781222
95325,2190.924664511457
95326,2184.0500816521258
95327,2140.453651768988
95328,2067.85736006789
95329,1984.716244125475
95330,1909.6944890530842
95331,1855.1466543293363
95332,1827.9501309246007
95333,1833.1271817169077
95334,1873.7002773967308
95335,1945.8227209740535
95336,2035.0675484353123
95337,2120.1706630193553
95338,2183.5701428845737
95339,2220.702399917374
95340,2240.025065658596
95341,2253.7380856542713
95342,2267.6285498684356
95343,2279.0375497853934
95344,2283.876780350708
95345,2284.6895389909073
95346,2290.735884709976
95347,2309.0937980621584
95348,2335.046584042927
95349,2351.476872265883
95350,2339.0669381645703
95351,2289.323568750495
95352,2210.0305434944444
95353,2119.7079264291256
95354,2037.0874995599277
95355,1974.593310005188
95356,1939.173437013767
95357,1935.921339372268
95358,1967.9305030792189
95359,2031.4243897903318
95360,2112.044680870175
95361,2188.5937814775752
95362,2243.5735310651107
95363,2272.48080422555
95364,2283.8298834905177
95365,2289.8730904783797
95366,2296.4452074880855
95367,2300.929983914497
95368,2299.2764486968726
95369,2294.0596833377735
95370,2294.565820015158
95371,2307.89310634322
95372,2329.3392787546045
95373,2341.7955980987194
95374,2325.94726956828
95375,2273.298468195854
95376,2191.625037483313
95377,2099.4340535185092
95378,2015.4395805159697
95379,1952.0435852539883
95380,1916.168111289124
95381,1912.8770677734005
95382,1945.23134667528
95383,2009.4192625495016
95384,2091.0453032918103
95385,2168.8731496229907
95386,2225.3649031511573
95387,2255.9772004368338
95388,2269.1840882411275
95389,2277.1981402660535
95390,2285.8153416750756
95391,2292.3820303018433
95392,2292.8116107915253
95393,2289.64569172785
95394,2292.139406343921
95395,2307.3627550613824
95396,2330.588209166531
95397,2344.684927208095
95398,2330.319304932946
95399,2278.9800793854524
95400,2198.431054851514
95401,2107.170643779107
95402,2023.9075500993545
95403,1961.041564549456
95404,1925.4955756189256
95405,1922.3371543170977
95406,1954.6334303317503
95407,2018.581258172968
95408,2099.795666363529
95409,2177.0525526110855
95410,2232.8275701078715
95411,2262.5918879267756
95412,2274.8347064341488
95413,2281.7840137047497
95414,2289.2511148978906
95415,2294.597229102864
95416,2293.749875249743
95417,2289.263702253731
95418,2290.4055287689
95419,2304.2554351629296
95420,2326.0941509355216
95421,2338.7970925712716
95422,2323.034775454975
95423,2270.297822752794
95424,2188.349640497455
95425,2095.685952994395
95426,2011.0105262398974
95427,1946.7160485664645
95428,1909.7162710661487
95429,1905.0677642904463
95430,1935.8250064312876
95431,1998.170798632319
95432,2077.7049969637987
95433,2153.187519967996
95434,2207.077572412434
95435,2234.829763305971
95436,2244.9169938556665
95437,2249.55159582488
95438,2254.5302465378504
95439,2257.200949198337
95440,2253.479794242059
95441,2245.912151062467
95442,2243.758049748906
95443,2254.0935899423716
95444,2272.1986147726457
95445,2280.9509999664565
95446,2261.027277277568
95447,2203.927811108417
95448,2117.429594117964
95449,2020.0458530557696
95450,1930.501790172038
95451,1861.2154280026903
95452,1819.1296590393492
95453,1809.3338566629984
95454,1834.918763131727
95455,1892.1066514919632
95456,1966.5397529737702
95457,2037.0229114662839
95458,2086.0624089866324
95459,2109.1616443533126
95460,2114.8435451469204
95461,2115.371198638387
95462,2116.5922335009423
95463,2115.905246970896
95464,2109.2759995337065
95465,2099.2980330798955
95466,2095.277478971707
95467,2104.3339000173587
95468,2121.78741123331
95469,2130.552436322409
95470,2111.337825718066
95471,2055.6715615058147
95472,1971.3531211607942
95473,1876.9126970329771
95474,1791.0866023091532
95475,1726.2978357910367
95476,1689.4879112833223
95477,1685.7383113795279
95478,1718.1252841650926
95479,1782.8499817812913
95480,1865.526933620317
95481,1944.9268162050528
95482,2003.5154633691932
95483,2036.7497977148741
95484,2053.10056150409
95485,2064.773329979013
95486,2077.5533353752826
95487,2088.7723921277548
95488,2094.3256404743247
95489,2096.7327589023516
95490,2105.2234058536
95491,2126.838728144351
95492,2156.819174046386
95493,2177.9989606894314
95494,2171.0069141100817
95495,2127.2918995638483
95496,2054.5759063049713
95497,1971.3139760185416
95498,1896.1702979861268
95499,1841.4994359171428
95500,1814.1787850720907
95501,1819.2306126805254
95502,1859.6773938435304
95503,1931.6724360415117
95504,2020.7887797906797
95505,2105.7623329189387
95506,2169.031178232107
95507,2206.03173232251
95508,2225.221631496145
95509,2238.800826120738
95510,2252.556411040342
95511,2263.8294826766087
95512,2268.5317409699037
95513,2269.206488397942
95514,2275.1137890700616
95515,2293.3316287100624
95516,2319.1433175289426
95517,2335.4314904168823
95518,2322.8784281402764
95519,2272.990923090392
95520,2193.552760185073
95521,2103.084008948794
95522,2020.3164569371281
95523,1957.6741568706777
95524,1922.1051936543674
95525,1918.7030317838698
95526,1950.5611630191092
95527,2013.9030548315436
95528,2094.3703944514714
95529,2170.765592955052
95530,2225.5904957658604
95531,2254.341983497131
95532,2265.53434475198
95533,2271.419907270047
95534,2277.8334595232104
95535,2282.158757128114
95536,2280.344835293836
95537,2274.9667818436546
95538,2275.310735324371
95539,2288.474949766871
95540,2309.7571680683895
95541,2322.0486575906816
95542,2306.03463008735
95543,2253.2192671956027
95544,2171.378419070915
95545,2079.0191685001832
95546,1994.855586442527
95547,1931.2896464691719
95548,1895.2433989622798
95549,1891.7807599629878
95550,1923.962628359253
95551,1987.977325673671
95552,2069.429346812779
95553,2147.0823795516358
95554,2203.398532593827
95555,2233.834449638683
95556,2246.864184628382
95557,2254.7003184864116
95558,2263.138843639057
95559,2269.5261052232963
95560,2269.775515228096
95561,2266.428689621384
95562,2268.740769057522
95563,2283.781761421689
95564,2306.824145499969
95565,2320.7370873796167
95566,2306.186990383814
95567,2254.6625991706574
95568,2173.927725677079
95569,2082.4807900379496
95570,1999.0305039065363
95571,1935.9766657803027
95572,1900.2421719423048
95573,1896.8946012304373
95574,1929.00109119515
95575,1992.7585042447274
95576,2073.7818768318784
95577,2150.8471146269826
95578,2206.4298788197093
95579,2236.0013465111288
95580,2248.050726127784
95581,2254.8060138352193
95582,2262.0785229160347
95583,2267.229480612231
95584,2266.186414035784
95585,2261.5039803146237
95586,2262.449006344268
95587,2276.1015807611275
95588,2297.742441366998
95589,2310.247012967677
95590,2294.285819304083
95591,2241.3494919249465
95592,2159.201445257925
95593,2066.3374120530098
95594,1981.4611667602883
95595,1916.9654061952472
95596,1879.7638899563744
95597,1874.9131971274178
95598,1905.4678144562313
95599,1967.6105516629852
95600,2046.9412734196271
95601,2122.2199068917835
95602,2175.9056654924225
95603,2203.4531668954664
95604,2213.3353209964453
95605,2217.764468265685
95606,2222.537294754849
95607,2225.001812414385
95608,2221.074120446369
95609,2213.2995970289517
95610,2210.938281053169
95611,2221.0662809799023
95612,2238.963448776845
95613,2247.5076690241663
95614,2227.3754823448194
95615,2170.0672620270802
95616,2083.3600096361747
95617,1985.7669608212445
95618,1896.0133267772692
95619,1826.5171389796035
95620,1784.221298877596
95621,1774.2151888168487
95622,1799.5895600415595
95623,1856.5666945917826
95624,1930.7888327018936
95625,2001.0608272765746
95626,2049.8889693598667
95627,2072.7766668068393
95628,2078.2468562436375
95629,2078.562633996527
95630,2079.57163780128
95631,2078.6724739669417
95632,2071.8309120567246
95633,2061.6405030476094
95634,2057.4073873945945
95635,2066.2511370045127
95636,2083.491875998096
95637,2092.0440371873688
95638,2072.616480120205
95639,2016.7371960009125
95640,1932.2056714257096
95641,1837.5521078705729
95642,1751.512827650245
95643,1686.5108386970971
95644,1649.4876639465833
95645,1645.524795126521
95646,1677.6984894572165
95647,1742.2099082131049
95648,1824.6735899213484
95649,1903.860220234285
95650,1962.2356421323016
95651,1995.2567873338155
95652,2011.3944072354884
95653,2022.8540862061673
95654,2035.4210656047148
95655,2046.4271689861694
95656,2051.7675457045957
95657,2053.961883359274
95658,2062.239849499109
95659,2083.6426000409497
95660,2113.4105923518887
95661,2134.378052654678
95662,2127.1738160638783
95663,2083.246756911923
95664,2010.318873520891
95665,1926.8452166352852
95666,1851.489984586877
95667,1796.6077501262937
95668,1769.0759175470268
95669,1773.9167630998484
95670,1814.1527708966648
95671,1885.9372574184708
95672,1974.8432721710872
95673,2059.6067319582244
95674,2122.665728550277
95675,2159.4566874914603
95676,2178.4372540260083
95677,2191.80738744597
95678,2205.3541915055907
95679,2216.418771521509
95680,2220.9128363157447
95681,2221.379697229866
95682,2227.079427222517
95683,2245.0900208489675
95684,2270.6947971355685
95685,2286.7763997696998
95686,2274.017118298486
95687,2223.923753874693
95688,2144.280100158363
95689,2053.606235402276
95690,1970.633955852647
95691,1907.7873229269862
95692,1872.0144301890557
95693,1868.4087507759766
95694,1900.063785070825
95695,1963.2030091411266
95696,2043.4681187948308
95697,2119.6615336620553
95698,2174.2851076969678
95699,2202.835730020312
95700,2213.8276977170694
95701,2219.5133469868692
95702,2225.727474734256
95703,2229.853844984443
95704,2227.8415013290405
95705,2222.265539947893
95706,2222.412107718213
95707,2235.3794669721888
95708,2256.465368883384
95709,2268.561089061092
95710,2252.3518474778907
95711,2199.341833961626
95712,2117.3069068296445
95713,2024.7541570008689
95714,1940.397663536059
95715,1876.6394080780437
95716,1840.401449051177
95717,1836.747710505964
95718,1868.7390993066326
95719,1932.5639449288517
95720,2013.826750186931
95721,2091.2912107394936
95722,2147.4194431363426
95723,2177.6680988999688
95724,2190.5112397455664
95725,2198.1614543460405
95726,2206.414742839997
95727,2212.617458041205
95728,2212.683019581936
95729,2209.153051034691
95730,2211.2827006247617
95731,2226.141983770524
95732,2249.0033867545235
95733,2262.7360831226542
95734,2248.0064836208726
95735,2196.303340290828
95736,2115.390472414345
95737,2023.7663074330292
95738,1940.1395642679252
95739,1876.9100486447392
95740,1841.0006640345987
95741,1837.4789964234706
95742,1869.4121904706647
95743,1932.9971156500087
95744,2013.8488154405936
95745,2090.743202497141
95746,2146.1559449519577
95747,2175.5582268064754
95748,2187.439263344915
95749,2194.0270575481286
95750,2201.132929470041
95751,2206.118113081128
95752,2204.910142177989
95753,2200.063680528982
95754,2200.8455616264728
95755,2214.335880656074
95756,2235.8153819266586
95757,2248.1594967054534
95758,2232.0387551475137
95759,2178.9437951708933
95760,2096.6380375259987
95761,2003.6172212398067
95762,1918.585126994206
95763,1853.9344577754564
95764,1816.578979329021
95765,1811.575276821081
95766,1841.977843038181
95767,1903.9694936909286
95768,1983.1500993932332
95769,2058.279593203853
95770,2111.8171943784005
95771,2139.217526386638
95772,2148.953504868031
95773,2153.2374759878076
95774,2157.866131441829
95775,2160.187488774081
95776,2156.1176527310604
95777,2148.2020069818773
95778,2145.700595859314
95779,2155.689533213086
95780,2173.4486763486952
95781,2181.855915130934
95782,2161.587795418023
95783,2104.1446956787236
95784,2017.3036226061522
95785,1919.5778169246732
95786,1829.69249485177
95787,1760.0656928344454
95788,1717.6403172284251
95789,1707.5057552486887
95790,1732.7527629459319
95791,1789.603627107033
95792,1863.700592677039
95793,1933.848517193187
95794,1982.5536962929875
95795,2005.3195423642708
95796,2010.6689965146243
95797,2010.8651594905568
95798,2011.7556733973413
95799,2010.7391488545313
95800,2003.7813596814276
95801,1993.475861054747
95802,1989.1287975736043
95803,1997.8597452292224
95804,2014.9888321732053
95805,2023.4304951909587
